# 1) phi1 (deg)
# 2) phi2 (deg)
# 3) dist (kpc)
# 4) v_los (km/s)
# 5) pmphi1* (mas/yr)
# 6) pmphi2 (mas/yr)
-44.99999999715081 0.045768285233429205 7.547151760118871 25.532003809422577 -13.427213301105304 -3.296449489913687
-42.92401418040566 0.09487319762024976 7.566590418815081 10.664592421404151 -13.422159333937953 -3.25965901801575
-40.857402042427616 0.13575737426393436 7.5932083254421485 -4.140291625384933 -13.390794317357647 -3.2192262039735278
-38.803606524525634 0.168367883192302 7.626937739666431 -18.837129213381942 -13.333797561000022 -3.1755287463415187
-36.7659224953831 0.1927043955049932 7.6676891229405335 -33.38230669167196 -13.252125810920266 -3.12896552713405
-34.74746365023596 0.20881757959326466 7.715352416275618 -47.73466477753144 -13.146983810985663 -3.079947260651104
-32.75113429107248 0.21680650644796373 7.769798558167035 -61.85596583196431 -13.019789396646761 -3.0288874504410823
-30.779606564650457 0.21681510316499344 7.830881176875484 -75.71126877949274 -12.87213488682502 -2.9761940168556897
-28.835303341346748 0.20902799353431917 7.898438437683581 -89.26920748501803 -12.705746498953225 -2.922261859403837
-26.92038685777903 0.19366579022680702 7.972294964945024 -102.50217102443496 -12.522443547392358 -2.8674665660109655
-25.036752811496267 0.17098005232613853 8.052263815190662 -115.38639052477943 -12.324098913304907 -2.812159371790382
-23.186029642620092 0.14124810828057122 8.138148436842512 -127.90193884117207 -12.11260210891695 -2.7566634060758175
-21.369582405614683 0.10476788850283882 8.229744602385084 -140.03265344987273 -11.889825891102147 -2.70127118162708
-19.588520662609902 0.06185293644719052 8.326842245980178 -151.76599373073373 -11.657597169413732 -2.646243242964651
-17.843709731298155 0.012827653393680739 8.429227217293917 -163.09284491994853 -11.417672548929458 -2.591807831327598
-16.13578456385567 -0.04197708862080177 8.536682893384516 -174.00728162622931 -11.171718689904557 -2.538161418817762
-14.46516560717941 -0.10222788221331953 8.648991669173864 -184.50630284078505 -10.921297338784546 -2.4854699313208055
-12.832076061895568 -0.16759228270683835 8.765936285673614 -194.5895490299534 -10.667854804379125 -2.4338705074210507
-11.236559857914168 -0.2377418555223645 8.88730101699256 -204.25901199003863 -10.412715433743884 -2.3834736312411273
-9.678499957697282 -0.3123547018598823 9.012872703972317 -213.5187450390839 -10.157078627664909 -2.3343654975656483
-8.157636510197339 -0.39111756933655967 9.142441643271203 -222.3745806242991 -9.90201885957182 -2.2866104965711056
-6.673584514079704 -0.47372753514393895 9.275802334307427 -230.83386064432625 -9.648488169131467 -2.24025371793915
-5.225850732862683 -0.5598932716800966 9.412754097398507 -238.9051833664401 -9.39732061133215 -2.195323394872275
-3.813849634739241 -0.6493360156610075 9.55310157361104 -246.5981696020661 -9.149238182215177 -2.1518332375538196
-2.4369183055824544 -0.7417901526378398 9.696655112692742 -253.92324931455434 -8.904857806575723 -2.1097846061977896
-1.0943301013223787 -0.8370036245279688 9.84323106191085 -260.89147010240976 -8.66469900083412 -2.0691685130435578
0.21469287493023384 -0.9347380362897266 9.992651973254706 -267.5143268846051 -8.42919190385029 -2.0299674241954095
1.4909685066726854 -1.0347686159920169 10.144746730431761 -273.8036121987017 -8.198685425710641 -1.9921568703414934
2.735344619584018 -1.1368840259079198 10.299350612020909 -279.7712864318453 -7.973455300613128 -1.9557068656853394
3.948690056741081 -1.2408860323526685 10.456305297736577 -285.4293663223676 -7.753711896107717 -1.9205831417161892
5.13188689384237 -1.3465891012460927 10.615458829331992 -290.7898307731962 -7.539607652774179 -1.886748211734175
6.285823617357102 -1.4538198916657126 10.776665532405186 -295.8645417831628 -7.331244087358853 -1.8541622751725126
7.411389267911042 -1.5624167505072009 10.939785900532598 -300.66517934898445 -7.1286783043434925 -1.822783986580557
8.509468434310223 -1.6722291453952123 11.104686464067479 -305.20318867815655 -6.9319289819840275 -1.7925710935792734
9.580937031769345 -1.783117069081966 11.271239630066011 -309.4897383088332 -6.7409818367513425 -1.7634809642841827
10.626658769241374 -1.8949504792312881 11.439323511582343 -313.53568755022167 -6.555794564928712 -1.7354710211251658
11.647482235685104 -2.0076086699933002 11.608821741126025 -317.3515621892681 -6.376301283957191 -1.708499084521425
12.644238556855887 -2.120979760755474 11.779623284613525 -320.9475371358502 -6.202416488219683 -1.6825236545055149
13.617739495239206 -2.2349600880758302 11.951622239402912 -324.33342493394036 -6.0340385662074745 -1.6575041215670288
14.56877603242919 -2.3494536923858766 12.124717639490166 -327.51866950961823 -5.871052889330386 -1.633400932612097
15.498117251502574 -2.4643718039161744 12.29881325965928 -330.51234371468445 -5.713334525792091 -1.6101757114173991
16.406509580480414 -2.5796323390751197 12.47381741276641 -333.3231505840531 -5.560750604839604 -1.5877913434341246
17.294676299713053 -2.695159454609543 12.649642759848664 -335.95942729627586 -5.413162361642541 -1.5662120329683649
18.163317259186893 -2.8108831046475133 12.826206116992713 -338.4291512916658 -5.270426903880516 -1.5454033350115075
19.01310881669299 -2.92673862190544 13.003428274768442 -340.7399483124577 -5.13239871935649 -1.5253321666389088
19.844703919885806 -3.042666341683044 13.18123381039107 -342.8991016735818 -4.998930965429596 -1.5059668060798128
20.658732322316634 -3.1586112360673906 13.359550921905463 -344.91356258703115 -4.869876553179688 -1.4872768761380624
21.455800937420893 -3.2745225825830526 13.538311252407706 -346.78996134082837 -4.745089060046215 -1.4692333211215236
22.236494241680212 -3.3903536484819097 13.717449733986445 -348.5346187806343 -4.624423487664788 -1.4518083741638568
23.001374777464427 -3.506061400589055 13.896904427974897 -350.153558231031 -4.507736886771974 -1.4349755206524597
23.750983709501867 -3.6216062398646347 14.076616377241358 -351.6525175355762 -4.3948888637214445 -1.4187094576486756
24.48584140565122 -3.7369517409172737 14.256529466178483 -353.0369610317661 -4.28574198746671 -1.4029860491078623
25.206448067276018 -3.852064428106463 14.436590279882834 -354.31209148728647 -4.180162110049266 -1.387782282046083
25.91328438675768 -3.9669135575227226 14.616747974695357 -355.48286189124866 -4.078018610086839 -1.3730762203170286
26.60681218240612 -4.081470915724337 14.7969541597577 -356.55398681671994 -3.9791845743108465 -1.358846957728858
27.28747507602194 -4.195710648229519 14.977162771114866 -357.52995362755223 -3.8835369251470375 -1.3450745742185806
27.955699162386114 -4.30960906706465 15.157329961973373 -358.41503336156666 -3.79095649991461 -1.3317400887874487
28.611893658749544 -4.423144506390025 15.337413996983539 -359.2132910992853 -3.701328093220213 -1.3188254164992368
29.25645155989597 -4.536297190739102 15.51737514904391 -359.9285960148591 -3.6145404662157845 -1.3063133271505896
29.88975029006924 -4.649049059880159 15.69717560134965 -360.56463115032295 -3.530486328212213 -1.2941874007704857
30.512152317207395 -4.761383696171329 15.876779356471882 -361.1249025193534 -3.449062297442948 -1.2824319920764906
31.124005771941682 -4.873286157329288 16.056152150049996 -361.6127480701163 -3.3701688420608806 -1.2710321879223274
31.72564503963275 -4.9847429129493035 16.235261363058513 -362.03134604698596 -3.2937102085876053 -1.2599737747812847
32.31739134641785 -5.0957417152891775 16.41407594806347 -362.38372313387 -3.219594335545751 -1.2492432008974685
32.89955329720391 -5.206271518054221 16.59256634881759 -362.6727620075539 -3.147732762851169 -1.2388275442225696
33.47242743632777 -5.3163224026668345 16.77070443567196 -362.901208711376 -3.078040528250009 -1.228714481190287
34.0362987579791 -5.425885477315757 16.948463428878547 -363.07167957685635 -3.010436064654804 -1.2188922553766828
34.59144119615883 -5.534952827184253 17.1258178431896 -363.1866677274354 -2.9448410904830093 -1.2093496500706518
35.13811811787688 -5.643517420020966 17.302743419796045 -363.2485494157218 -2.881180499202753 -1.2000759594903618
35.67658277528533 -5.751573072741585 17.47921707255221 -363.2595898664974 -2.8193822475151173 -1.1910609649866613
36.207078754990086 -5.859114370492769 17.655216829400494 -363.22194895502787 -2.759377243706302 -1.1822949090710888
36.72984038731104 -5.966136624543776 17.83072178400514 -363.1376864518227 -2.7010992369660203 -1.1737684729096303
37.24509316414721 -6.07263581570611 18.00571204207186 -363.0087671249601 -2.644484707460314 -1.1654727541344818
37.75305411524378 -6.178608545106867 18.1801686733382 -362.8370654779205 -2.5894727593208446 -1.1573992459681401
38.25393218282246 -6.2840520050144315 18.35407367165753 -362.6243702611026 -2.5360050141241985 -1.1495398182425773
38.74792857655274 -6.3889639228133355 18.52740990858573 -362.37238878721445 -2.484025508251002 -1.1418866978765645
39.2352371066447 -6.493342520701139 18.700161089606738 -362.08275097342766 -2.4334805934705868 -1.1344324512925565
39.716044501424 -6.5971865014192295 18.87231172299323 -361.7570131253458 -2.384318839080051 -1.1271699686631336
40.190530722309894 -6.7004949930511835 19.0438470752287 -361.39666163898363 -2.3364909382507837 -1.1200924470236278
40.65886925474071 -6.803267531747055 19.214753142950624 -361.0031164118777 -2.2899496164270152 -1.1131933758674082
41.1212273882382 -6.905504025117408 19.38501661248604 -360.57773411806767 -2.24464954457867 -1.106466522779844
41.577766469583565 -7.007204729312743 19.554624832605683 -360.1218112364843 -2.2005472551011724 -1.0999059199891927
42.02864217491706 -7.10837023053962 19.723565784677042 -359.6365870284775 -2.1576010594393393 -1.0935058521134384
42.47400474139306 -7.209001405802263 19.89182805049585 -359.1232462999687 -2.115770971238576 -1.0872608432131285
42.91399919935814 -7.309099413886506 20.059400787426053 -358.58292200163356 -2.0750186311856145 -1.0811656460608128
43.348765593861714 -7.408665674688532 20.226273702177973 -358.0166977242718 -2.035307235254865 -1.0752152313705838
43.77843918992714 -7.507701841214672 20.392437024652647 -357.4256100495125 -1.9966014664986849 -1.0694047769133532
44.203150680211415 -7.606209796297624 20.55788148532188 -356.81065078849304 -1.958867428678846 -1.0637296588150331
44.62302636151233 -7.704191614296336 20.722598292645174 -356.17276908598757 -1.9220725844043318 -1.0581854407976654
45.03818833549964 -7.801649570962367 20.886579109955928 -355.5128734447984 -1.8861856939041144 -1.0527678672807315
45.4487546622488 -7.89858610664023 21.049816036680923 -354.8318336062335 -1.8511767587542634 -1.0474728534808642
45.85483953916034 -7.995003832069533 21.212301588949714 -354.1304823637951 -1.8170169661397293 -1.0422964787974685
46.25655345141532 -8.090905495204067 21.374028679737794 -353.4096172907897 -1.7836786370816395 -1.0372349781118095
46.65400332541089 -8.186293987273615 21.53499060079609 -352.67000234625084 -1.7511351762569363 -1.0322847358279776
47.047292665160576 -8.281172322108446 21.695181007921388 -351.9123694097273 -1.7193610245647462 -1.027442278423416
47.436521699378865 -8.375543626819727 21.85459390072326 -351.1374197805775 -1.6883316133673407 -1.0227042683358158
47.82178750492747 -8.469411130345609 22.013223612088105 -350.3458255498902 -1.6580233210360544 -1.0180674975363941
48.20318412971511 -8.562778164179724 22.171064790742825 -349.5382308965892 -1.6284134319952426 -1.013528882457814
48.58080272023584 -8.655648139105159 22.32811238623206 -348.71525340395806 -1.5994800967468559 -1.0090854577022252
48.95473162157268 -8.74802454608135 22.48436163751734 -347.8774851881809 -1.5712022948854392 -1.0047343712086014
49.325056494819265 -8.839910946729631 22.639808058395953 -347.02549407153884 -1.5435597988403713 -1.0004728792620268
-47.0818057719803 -0.01145129277058464 7.534937287812716 40.415134343054916 -13.40557677368099 -3.329250365182767
-49.16580746598179 -0.07662702192771902 7.529968442390238 55.2665517098371 -13.357184334553718 -3.3577535739820266
-51.24835333334669 -0.14954978425058665 7.5322428010663565 70.03889210133786 -13.282289646728438 -3.381698029661675
-53.32580728319172 -0.22996288943722898 7.541734062935896 84.68555586074392 -13.181461023100539 -3.400876096750579
-55.394591828675054 -0.3175660629993462 7.558392376373983 99.16138300594675 -13.055567688131857 -3.41513842217052
-57.4512293000453 -0.41202038201143115 7.582145008837164 113.42328555473624 -12.905757383995498 -3.424396902594826
-59.492380168982436 -0.5129539158904538 7.612897323808853 127.43081623622717 -12.733426471804659 -3.4286256866565608
-61.514877466797046 -0.6199678435771074 7.65053405130396 141.1466567049187 -12.540183988944236 -3.427860214299209
-63.515756473594365 -0.7326428194622895 7.694920794926566 154.5370127880501 -12.327811430357272 -3.4221944230749246
-65.4922791068525 -0.8505454672236356 7.745905738771185 167.57190958504913 -12.09822008728498 -3.411776327844387
-67.44195268660656 -0.9732346748613718 7.803321506759322 180.22538373298235 -11.853407771801253 -3.396802272058988
-69.36254297564601 -1.1002675389204284 7.866987117893304 192.47557499003238 -11.595416632092535 -3.3775101916889905
-71.25208158655016 -1.2312049058143388 7.9367099902246405 204.30472330090592 -11.326293523953881 -3.354172241231795
-73.10886819179552 -1.3656162665987248 8.012287951486629 215.6990813967918 -11.04805409487631 -3.3270871413732035
-74.93146789378581 -1.5030839838220218 8.093511211489503 226.64875396851096 -10.762651443345435 -3.2965725697414294
-76.71870440727585 -1.6432068262906816 8.18016426204003 237.14747717141503 -10.471949863632153 -3.262957870027588
-78.46964969947052 -1.7856028264006538 8.2720276711736 247.1923521399466 -10.177703894058636 -3.2265773002009452
-80.1836107898367 -1.9299113889469353 8.368879755841979 256.78354591788775 -9.881542601471756 -3.187763989862245
-81.86011434939697 -2.0757947902552236 8.470498115917135 265.9239723289629 -9.584958835018764 -3.1468447017574945
-83.49888977597404 -2.22293906119351 8.576661007873462 274.6189641513546 -9.289303025138386 -3.1041354587507004
-85.0998513036811 -2.371054396440687 8.687148574462954 282.87594625123245 -8.995780963608958 -3.05993802519539
-86.66307974178022 -2.5198750558924745 8.801743907570891 290.7041178777122 -8.70545498152658 -3.0145372309494705
-88.18880416722484 -2.6691589512770677 8.920233967236532 298.1141498272162 -8.419247900037359 -2.968199058395551
-89.67738403133637 -2.8186869001187023 9.042410346428019 305.1179015012277 -8.137949159093482 -2.9211694310249943
-91.12929196823056 -2.968261681830052 9.168069907147567 311.72816109075416 -7.862222545745108 -2.873673602499243
-92.54509744085183 -3.1177069007422697 9.297015284753435 317.9584100705871 -7.5926150387229905 -2.8259160671117147
-93.9254514824817 -3.2668657636682408 9.42905527877341 323.82261351237815 -7.329566306264395 -2.7780808953293845
-95.27107252325872 -3.41559978611866 9.564005144877758 329.3350354037292 -7.073418487834264 -2.7303324187564586
-96.58273343604431 -3.5637875220786883 9.701686784403709 334.5100788257907 -6.824425937690957 -2.6828161964740986
-97.86124969376057 -3.7113232715508753 9.841928869675241 339.36214896721293 -6.582764642617159 -2.635660221068822
-99.10746871371728 -3.8581159289798865 9.984566887262098 343.90553836703555 -6.348541054245006 -2.5889763450657246
-100.32226007728849 -4.0040879166278875 10.129443128208028 348.15433129892557 -6.12180003581443 -2.5428619884037427
-101.50650662295385 -4.149174425519874 10.276406633477649 352.12232683830206 -5.902531409045438 -2.4974022924190593
-102.66109584433481 -4.293323033824431 10.425313091903945 355.8229774843886 -5.690674102929069 -2.4526732473657993
-103.78691077490102 -4.436494259765061 10.576024711113309 359.26934125367677 -5.486115311569228 -2.4087471686503026
-104.8848182198315 -4.578664122269256 10.728410055996756 362.4740406701044 -5.288677387877691 -2.365704569674535
-105.95564839494094 -4.719831968123362 10.882343859673464 365.44919991970795 -5.098071512993843 -2.323664142118269
-107.0001513153755 -4.860041754634918 11.037706702945648 368.2062183031469 -4.91378116356036 -2.282851615868963
-108.01892195824428 -4.999420999976694 11.194384228192828 370.75503046055326 -4.735053869476524 -2.243607140880053
-109.01242222545804 -5.138165653484635 11.35226564801367 373.1039925061897 -4.5616690959430315 -2.205955475383618
-109.98120247453971 -5.276413607554017 11.511243418360626 375.26213488764995 -4.394140364530534 -2.1694983979423017
-110.92597515343127 -5.414202956294471 11.671214589702002 377.23949957647307 -4.2327826947927605 -2.1339465916057843
-111.84752748258069 -5.551521216279379 11.832081498787316 379.0460625896 -4.077597725889753 -2.099184539314996
-112.74666142820007 -5.688338783090187 11.993751718527395 380.6913493793882 -3.9284513038499185 -2.06516971267313
-113.62416976561528 -5.8246218263119465 12.156137824428129 382.18437935475197 -3.7851583741523473 -2.031885148188257
-114.4808266059623 -5.960337048513591 12.319157135937202 383.5336748475996 -3.6475145136561573 -1.9993225921722664
-115.31738336896956 -6.0954534947240395 12.482731470460601 384.74728146058254 -3.51530863581911 -1.9674763255946586
-116.13456700653151 -6.229943170037617 12.64678689779212 385.83279023176857 -3.3883288504612126 -1.936340782256127
-116.93307929902561 -6.36378121504026 12.811253515728938 386.7973600005462 -3.2663655238322336 -1.9059096201444203
-117.71359668291318 -6.496945835332092 12.976065226572942 387.64773925925635 -3.149213050789856 -1.8761754059281421
-118.4767704445097 -6.629418149776057 13.141159535494785 388.3902876663316 -3.036670943278032 -1.8471295624031383
-119.22322711547274 -6.76118198363859 13.30647734691817 389.03099691885035 -2.9285445285301654 -1.8187624380091234
-119.95356896774302 -6.892223656214084 13.471962781516456 389.57551084368936 -2.8246453968033096 -1.7910634244614714
-120.66837466052588 -7.0225317691641225 13.637562994963298 390.02914494766225 -2.7247916723812713 -1.764021092967775
-121.36819989564384 -7.15209700600646 13.80322801124401 390.39690502208936 -2.6288081645774097 -1.7376233309820706
-122.05357815931825 -7.280911939244695 13.968910562629448 390.6835050678112 -2.5365264221675403 -1.711857473078949
-122.72502143411755 -7.408970844638362 14.134565940930212 390.8933842198576 -2.4477847221298195 -1.6867104220112092
-123.38302099655047 -7.536269546878604 14.300151851495912 391.0307230775526 -2.3624279982003946 -1.6621687568015715
-124.02804814847642 -7.662805255076935 14.465628279646728 391.0994589627553 -2.28030773359945 -1.6382188308936372
-124.66055499957105 -7.788576435056297 14.63095736538483 391.103300554757 -2.2012818166243666 -1.614846856244907
-125.28097521651785 -7.913582673974738 14.796103283609945 391.0457416207089 -2.1252143747154415 -1.5920389787650788
-125.88972476029457 -8.037824567824368 14.96103213029985 390.93007399771676 -2.051975590858146 -1.5697813429162653
-126.48720260766875 -8.161303619189868 15.125711813378192 390.7593998258648 -1.9814415072611533 -1.5480601473697837
-127.0737914817851 -8.28402213410333 15.290111959125015 390.53664311730665 -1.9134938168818318 -1.5268616925321497
-127.64985851602171 -8.405983144576847 15.454203810803804 390.26456054349353 -1.8480196557823927 -1.5061724208584475
-128.21575593172818 -8.527190317582875 15.61796014555679 389.9457516308152 -1.784911388166567 -1.4859789512931187
-128.77182168573995 -8.647647893253476 15.781355185991247 389.5826683432604 -1.724066393508884 -1.4662681069811918
-129.3183800888485 -8.76736061903881 15.9443645225448 389.1776240490426 -1.6653868548269593 -1.4470269385880021
-129.85574239878935 -8.88633368446234 16.106965041492106 388.73280191412584 -1.6087795503152662 -1.4282427434469138
-130.38420740822 -9.004572678335123 16.269134851014513 388.2502628414389 -1.5541556482822854 -1.4099030799792163
